##TITLE=	X308_1H_20181220_linalool_100mg_1024-2

##JCAMP-DX=	6.0	$$ MestReNova 14.0.1-23559
##DATA TYPE=	LINK
##BLOCK_ID=	1
##BLOCKS=	1    
##ORIGIN=	Mestrelab Research S.L.
##OWNER=	skim592
##$MNOVA/LINK_BLOCK_TYPE=	ITEM	$$ NMR Spectrum
##$MNOVA/ITEM/POLYGON=	(XY..XY)
5321,5835
8722,5835
8722,8208
5321,8208
5321,5835
##$MNOVA/ITEM/Z=	0
##$MNOVA/ITEM/ANGLE=	0
##TITLE=	X308_1H_20181220_linalool_100mg_1024-2
##JCAMP-DX=	6.0	$$ MestReNova 14.0.1-23559
##BLOCK_ID=	2
##DATA TYPE=	NMR SPECTRUM
##DATA CLASS=	XYDATA
##NUMDIM=	1
##ORIGIN=	Nanalysis Corp.
##OWNER=	Nanalysis
##.OBSERVE FREQUENCY=	60.731202585204201227
##.OBSERVE NUCLEUS=	^1H
##.SOLVENT NAME=	Chloroform-d
##.PULSE SEQUENCE=	1DPULSEACQUIRE
##LONGDATE=	2018/12/20 08:42:14.000
##.ACQUISITIONMODE=	SIMULTANEOUS (DQD)
##$ORIGINAL FORMAT=	JCAMP-DX NMR
##$MNOVA/SCALES_VERSION=	8
##$PARAMETER FILE=	(datafile, ASCII, c:/Users/skim592/Desktop/IMP%20series/IMP_On_Gdrv/Linalool/Havard%20Dataverse/Linalool_NMRdata_60MHz_CDCl3_Magritek/Linalool_3080ug200uL_CDCl3_1HNMR_60MHz_Magritek.dx, 0)
$$ 
##$PARAMETER FILE=	(header, ASCII, c:/Users/skim592/Desktop/IMP%20series/IMP_On_Gdrv/Linalool/Havard%20Dataverse/Linalool_NMRdata_60MHz_CDCl3_Magritek/Linalool_3080ug200uL_CDCl3_1HNMR_60MHz_Magritek.dx, 0)
$$ ##TITLE=X308_1H_20181220_linalool_100mg_1024-2
$$ ##JCAMP-DX=5.01 $$ Nanalysis NMReady v2.1.3
$$ ##DATA TYPE=NMR FID
$$ ##DATA CLASS=NTUPLES
$$ ##ORIGIN=Nanalysis Corp.
$$ ##OWNER=Nanalysis
$$ ##LONG DATE=2018/12/20 08:42:14-0700
$$ ##SPECTROMETER/DATA SYSTEM=NMReady 60/nanalysis-X308
$$ ##INSTRUMENTAL PARAMETERS=^1H
$$ ##TEMPERATURE=31.949943
$$ ##PRESSURE=1.000000  $$ Bar
$$ ##RESOLUTION=0.00001999999949
$$ ##SAMPLE DESCRIPTION=Brief description of the sample here
$$ ##.OBSERVE FREQUENCY=60.73120258520424
$$ ##.OBSERVE NUCLEUS=^1H
$$ ##.SOLVENT NAME=Chloroform-d
$$ ##.ACQUISITION MODE=SIMULTANEOUS
$$ ##.SHIFT REFERENCE=INTERNAL, Chloroform-d, 8192, 10.00000000000000
$$ ##.SOLVENT REFERENCE=10.00000000000000
$$ ##.PULSE SEQUENCE=1DPULSEACQUIRE
$$ ##.DELAY=(0.000000,0.000000)
$$ ##.FIELD=1.426369  $$ Tesla
$$ ##.OBSERVE 90=17.500000
$$ ##.ACQUISITION TIME=6.55319983445224
$$ ##.ZERO FILL=0
$$ ##.AVERAGES=1024
$$ ##.DIGITISER RES=16
$$ ##.SPINNING RATE=0.000000
$$ $$##.PHASE 0=0.00000000000000
$$ $$##.PHASE 1=8.00000000000000
$$ $$ NMReady specific parameters
$$ ##$SCANS=1024
$$ ##$SCAN DELAY=5.004238
$$ ##$TOTAL DURATION=14397.211975
$$ ##$X_PULSE=17.500000
$$ ##$RECVR_GAIN=22
$$ ##$SWEEP WIDTH=40.000000
$$ ##$RELAXATIONDELAY=7.501940
$$ ##$ZEROING=7.000000
$$ ##$APODIZATION=0.100000
$$ ##$PHASECORRECTION=0.000000,8.000000
$$ ##$PIVOT=0.000000
$$ ##$DT=0.000020
$$ ##$LOCKOFFSET=7.260000
$$ ##$SPECTRALCENTER=10.000000
$$ ##$DECIMATION=20
$$ ##$LOWESTF2=-642.688006
$$ ##$T2NUCLEUS=1H
$$ ##$INTEGRALS IS MANUAL=False
$$ ##$INTEGRALS REFERENCE ENERGY=-976.667053259866
$$ ##$DecouplingSettingsType=2
$$ ##$DecouplingSettingsTypeName=BBWaltz16
$$ ##$DecouplingSettingsMode=0
$$ ##$DecouplingSettingsModeName=Off
$$ ##$RDC ENABLED=1
$$ $$ End of NMReady specific parameters
$$ $$ Bruker specific parameters
$$ $$ --------------------------
$$ ##$DATE=1545320534
$$ ##$SI= 131072
$$ ##$TDeff= 16384
$$ ##$SFO1= 60.73120258520424
$$ ##$O1= 607.31202585204244
$$ ##$SF= 60.73059527317839
$$ ##$BF1= 60.73059527317839
$$ ##$AQ= 6.55319983445224
$$ ##$SWH= 2500.00006315531391
$$ ##$SW= 41.16500179043682
$$ ##$SR= 0.00000000000000
$$ ##$OFFSET= 30.58280672324760
$$ ##$FIDRES= 0.15258789447969
$$ ##$O1P= 10.00000000000000
$$ ##$TD= 32768
$$ ##$DW= 199.99999494757503
$$ ##$SPECTYP= PROTON
$$ ##$NS= 1024
$$ ##$DS= 2
$$ ##$DR= 16
$$ ##$DE=5.004238
$$ ##$RG=22
$$ ##$P1=17.500000
$$ ##$P= (0..2)
$$ 0.0 17.500000
$$ ##$PHC0= 4.00000000000000
$$ ##$PHC1= -8.00000000000000
$$ ##$PH_mod= 1
$$ ##$WDW= 1
$$ ##$LB= 0.10000000149012
$$ $$ End of Bruker specific parameters
$$ $$ ---------------------------------
$$ ##NPOINTS=16384
$$ ##DELTAX=0.0004000000
$$ ##NTUPLES=NMR FID
$$ ##VAR_NAME=TIME,FID/REAL,FID/IMAG,PAGE NUMBER
$$ ##SYMBOL=X,R,I,N
$$ ##VAR_TYPE=INDEPENDENT,DEPENDENT,DEPENDENT,PAGE
$$ ##VAR_FORM=AFFN,AFFN,AFFN,AFFN
$$ ##VAR_DIM=16384,16384,16384,2
$$ ##UNITS=SECONDS,ARBITRARY UNITS,ARBITRARY UNITS,
$$ ##FIRST=0.000000,7794.169817,298.526997,1
$$ ##LAST=6.553200,-0.002081,0.001274,2
$$ ##MIN=0.000000,-6080.532599,-6842.995548,1
$$ ##MAX=6.553200,7794.169817,5290.508118,2
$$ ##FACTOR=0.00039999998989515007,0.00000362944424576888,0.00000362944424576888,1
$$ ##PAGE=N=1
$$ 
##XUNITS=	HZ
##YUNITS=	ARBITRARY UNITS
##FIRSTX=	1857.3120258491831009
##LASTX=	-642.68797415081701274
##DELTAX=	-0.038147554741741057649
##XFACTOR=	1
##YFACTOR=	4.2465298842661931318e-06
##FIRSTY=	0.054547850042581558228
##MINY=	0.0096997162327170372009
##MAXY=	17.6527252197265625
##NPOINTS=	65536
##XYDATA=	(X++(Y..Y))
1857A2845l1J55L11L41K80K22J87J41Q3N5N3L6%k2k2k0k8k7k1l1n0n6m5m1m7m2k0jPRJ0qk9
1856A4194k7NL5M1L3L2L0K2J5J2Prk5l4l1j7RL1L3J1j5l4m9n6m9k6lJ4K9M3M9M2L6L6L5K2
1855A4441Mrj4k0k6l2l2k0MK9L6K5J0jqj4j3oJJ2K6L0J4j6l9m4m5n2n0l8k2j4rLJ3Rpk8l5
1853A4063k3OL7N0M5M2M6N4N2L6J6nk0l0l1k8k1rJJnj1j3j5j2lJ3K6L2L1K0jk4l5l5k9k2l
1852A4196K3L9L9K7J5Kqj4j2j0oKJ2J2OLJpk1k8k3k2l4m9m9l4j5LJ8L3M1M7M7L4Ok1k8j3J0
1850A4222K3K0Lj7k9l2k4j2LJ8K2J6RJ3K6M2M8M7L4J2rk2k6k6k4j9j8j8j6j0JJ1K1K7K8K2
1849A4366J1jj2k4k7k3j3mkmmOK4L7L1Pj8l7m4m4l7k8j4JJ8K2Pk2l9l4pK0M0M9M8L9L0J7K
1847A4337j7l4l6k3KK9M0L1Qj2k4k8k9k0qknj0pKRJ7K6K7J2j3l2l1j9lMlj4j7jJ9K5J5NRK3
1846A4252K9J7pk8l5k5oMnl2m8l6%L1L2J1npljLPJ2J5J8J9J5Loj4k1k5k1pJ0J6J2RPONKOJ7
1844A4226L5M7M3K8J4RPNjj1k1l1l7l8l9m4m4l6j6J0L9N7N7M4L1K5J9Qjkkpk2m1n4m6j8J3
1843A4206K2Qprj1k4l7l5k4j5lJ8M1N0M9M5M1K1j7m9o0m9l2k1j7j5pNJ4K1L3M6M6K6jj8k6
1841A4215l3l8l2j4PK5M5O1O2M6K4Rjj2j8j6n%nj2j6j3nLJ0J1PJmrj4j9j6qjlj2j4qMJ6L0
1840A4248M4M7L1Oj2j4j1k1m1n1m1j9oj1k2l0k9k8k4oK3M9N5M1J9jj5k1j8j5j4oJ2L0L8L0
1838A4217K0J1KqrkMNKkrj8k0j0KJ0J4J8J9J2NNJ1Mj5l1k8j1PJ8K4K4J9J3J0J0PLNQNrk3k8
1837A4291j9j1j4k1k1j4kJ2K9M4M6L2Oj7k4k0j6j5j8k0k5l0k4qQJ1LnoopkJ3K6K9J9J1RJ6
1835A4260K0J9J1MKJqj9k4j9j4j4j2%J4J2j2m5n8m5j3J6K9L1L3L4K5OrmJ8L7L9K1nl0m8n8
1834A4195n7m4k5oKMJ2K4L2L1K6K4K3K3K8L6L8K4kk3l0l0l2l8m2l8k1LK1K7K4K5K9L3L3K7
1832A4356Rk3n7p2n9k6OJ9J5JqqLJ7L5N2O0M7K0lqKJ3Prk5k5j0OJ3J4RLnoOJ2jl1n5n3l3j3
1831A4195JONJkJ%qk2l6m1l8k1MK6L1K6K7L5L7K1rl2m0l7l0j6OK8L4K7J9J8J2pk8l5k0LJ3
1829A4154Qpk2k3pJ8L3L4K6J7J3RJ0J4J5Pqk0j9j1nnj0j7k0j9j3jK3M7N4M0J5rk2k2j3JJ1
1828A4276Q%mJNOQQnk8l9k4MJ9Mk2m0l9k5pNRMknmLJ1J2Kj4j8jK9M9M9L3J2oj5oJ3K6K3Oj4
1826A4307k6l8n0o0n2j9L1O5O3K7j1l1k6oJ1J9J3jj8l0l4k8j3OJ9K1J9J8K7M0N3M7J8k2n1
1825A4288n2l6j9oQK1K3J3LNJ7K4J5j0l4m3l4j1J2K0J5Kj0j3pnj1k1k1lK2M6O2O3M6J3k1m4
1823A4317n3n1m2l1k0k0k4k1pJ5K8K8J9J0K%NJ9L2L1J6PJ8L8M5J9k6o8q3o8l3OL9O5P9P7N0
1822A4418Ql4p3r9j00p2k3K1M3M3K7PojJ7L0K6J2PJ5K0Qj9m4m8l2j1mj3j8j0JLJOJ1J2J2K3
1820A4164L6L7K5J0mk3m8n9m3rJ9L3L3K6K2K0K1J2qk3j9JJ2ll2m9l6%L8N4M3K0J1K3M3N2L9
1819A4438Ml6o3o6n2l6k6j8jK4L9K9jk7l2k2j6k3k8j5J6M4O0O1N4L5Nk4m1m0l1j9pLRLj1k1
1817A4168j8j0lkOK1L5M1M4M3L5J4j6l3l1k4k6l1k9j8j0n%RJ9K4K5K0J0kokJlj2k2l2l6l3
1816A4111k2rNK3M3N2M5K9J1rl8o3p6o6m5j7J6M9O3M9J8ppOK3K8K7J7Noj2j0JJ1J4Mrj4nJ
1814A4236ok0k8k2j3mJ0K5L3K4QknrrjJ4K2K1J6J6J3Mj0k0k5l2l7l7k4nJ5K7L0K9K9K6J9O
1813A4314qk0k8l2k5j1OJ7K2J8Nj4k5k3j0%MQPjj1j1NK7L4K4RNRJ3Rkk0l5m6n5o0n9m0JM3
1811A4044O1M4J1j0j2kPJ2J1QJj0j7j9qJ2L1L8L2K2J1OJ%nj4k8l9m1l0j0J3L3M5M7M0K3Jj4
1810A4295j7j4j6j9j0QJ9Qj6l0k8j7pkjkoj1j9k8l0k5pJ3L5M9N7N2L2%k8m1l9k6j0J1L8O2
1808A4230O1L4Mj3j0l%mj5k3k3qJ1K0J2pk1k5k0k0l0m6n1l4%K9M1L0J6J1J9L2L7L5K9K5K1
1807A4344J2mk2l7m6m4l1j6j0j9l2l9l0j3%JnJK2L5K6jk0j9mJ4K6L2L5L2K2Mj6k4j5LJ0QP
1805A4187J5K5K2Pj2k9l5k9j0J5L3L9K8Pj4j9nJ3J3pl1l8k5j0NJ9L3M1L5J6ok0k6k2j5ron
1804A4180lpj1mJ6L4L3J2ppQJ9J8OkJJ5K5J8mk4l0k0lJ1J3jj9k1JK6K9Qj8m0n3n8m8k8oJ1
1802A4070K2K2J0nnJ0K5L1L1K8J6rl3l9k7j3lLRJ3J4J9K2K0Opj0lMLpj6j0MJ8K4K5K2J2nk2
1801A4269l1k8k0j2j2j6j8j4jJ4K9M2M4K8kk6k7j1J1J9Rj2l6m3l1pJ2J8Rqk2k0lJ6K3J1mj4
1799A4136j6j4rlLMJ%KPJ0J0J2J5J6RkrojLKPK0K9K7Rj4k9l3k6j5%J8L5M4L7K1Jj6k5k6j8
1798A4216jJ0J2Lklmj8l7m9m0k1kJ0K0K8K7J3oj5rLRLj0j5oJ2K3J7nk3k2jK8M8N6M9K9om1
1796A4280n6m3j7MJ1Ooj9k0kK3L2J5rk3k8l4m1l7j6NK1K5K5K0J1ONQJ4K4L6L5J4k1n0n5l4
1795A4109KL4M2K6Lqj1ppj2k7n1o0l7J2N2N5L0Poj4j9rJ2L0L2K4J2jj7l5m3m3l4j7J2L7M5
1793A4118L6K0J5J8K3K4K0J3RJ1J4J1jj0qMK0K9K7J4kj5k5l3l4k6j6j6k7m3m9m7l9k9qK0M7
1792A4065N6M1J1j8k9k5j2KK1L7M3L9K7J4Lknpj1j1jJ3J9J6RJj5l3l7k5j0j1j9k0j0KPJ2K3
1790A4160K9K5J0lmMRMj0j4jJ2J0j2l0l6l3k9k8k6j7mJ0J7K0K0K3K7K4J9K0K5K7J8Nmj4k0
1789A4233j7jK2L4L6K6J3jj3j7j3rj0j2j6j4pmqk1l3l8m0l5k1lP%j3j3OL1M8N0M3L1J5OJ4
1788A4256L1M2L5J2j1l1m5n5n4m4k8j9j6j2mRK2L0K9K1J6J6J5Oj3k8k9j6%J1RMLJ0J8J7Nl
1786A4209omlLJ3K1K3J9J6J0mj7k6k8l1l2k0%J4J7K1M2O7O9L3j9n2n6m7m4m6m4l4k0j0kJ0
1785A4042K3L7M7M8L6J2op%NLjoj7k6k2mJ3J7QKLLnj5j9j2PK4K6J2j0k7l4k9j6KJ6J9J0%o
1783A4153pponpplJ1K7L3L4K9J8kk1k4pQNj4k8k6j0RK0K1Pj1k2j7JJ4J0lj6j8j4j1j5j3JK4
1781A4111L7K9J0jKKqk3k4rJ4K8K9J8OKQJ2Nj0j7lJ6K3J3Jjok4m3m8l6k2qPK4K4Jk6l0rK2
1780A4096M4M5K5ql4l4j3RK1K6L1L1K1Opk3l7m6m0k8j6kJ1J9K1K2L2L9K9Mj7k5k7k4j1OJ6
1778A4162Rmj0jJ2K4K7K3J4Kj4l2m1l6k2j3j2lJ8L6L9K5J0kj3k2k9k9j8MK8L8L0J7Ook2l0
1777A4165k1KJ7J4JlOK0K9K5Kl1n3n1l2j1NJ6J7QoqNJ9J9Nj2j9j6mJ2K2K2RjnmmnJJ2K0J7
1775A4204Kj7l3l4k0mnk2l7l0pJ9L8N2N8M5J8mj1jJ0J4J1Ojnj0j2j6k2k8l4k7pJ4K9L0K8K6
1774A4217K0J0jj1j7j6KM1P2P3L4j7n3o1m9l1k8m0n2m2j3RPj0k2j5MK4L9M5M6L5J1j4k4j0
1772A4163J5K8K2QJKmj6k9l2k9k2j7j6j9k9l9m0k8mL0O1P3N8K5JnJKpj9k5j7JJ9K8K1J0MP
1771A4183P%qpMJ4J8J4Nmj0j2j5j9j8j3mMJ1J7K3K1Qqj7j7j4j3j0kJ0J8J5J1Mlj4j5kJ8K6
1769A4206K4J7J5J2Kj1j4qjlj2k2k5j6JJ1J2QQJ1J1QKkn%OQlj9k4j7o%Joj6j7mK0L7L7K2J
1768A4249j8k8k4rQJ6K4K8K1ll8n9n1k6nJqk3l5l9m1l8k0QL6M8M2L3K9L1L2K2Mrj1LK0K7J8
1766A4215Kj4k4k4j3%LmrnOR%j7l1k7oK0M3N6O8P3O2K7j7m6n4n7o6p6p2m7j1J6K9L4L7L5K6
1765A4141J7J1RMPJ9L8M5L0%l0m9n6n4m9m3l6k0JK1K8K6K0J3OMJ1K1K7K7K9L1K1Lj2j3o%j
1763A4241mj0j3j3mLNRJ5J5ll4o1p4o8m7pL4O0O4N5M4K7jl1m8m2j7RK2J7KrkJ4K1Mk3l4j9
1762A4097OJ1mj7qJ5K3J5MJpk4l4k0J3L9M2K9J6NnoMK4M0M1K7Kj7k4k3k3k8k4oJ7L1K9K2J4
1760A4297OKJMJ1J2Pkj0j4j5j7k2k4k1k4l4m8n1l9j6OJ9K1J2MJ1K6L5K5lk8m3m4l3rK2N1O3
1759A4138N2K5mk6l5l6l2k7j7%J6K3J4qk4k0ML1M1K7QkNK0K6J8%j7k7l2l1k1qkj0k0k3j4q
